ZPLOT2 ASCII
  Measured Data, ZPlot:       3.5i
  Experiment Type:            Sweep Frequency, Control Voltage
  Date:                       03-30-2026
  Time:                       20:18:54
  Open Circuit Potential (V): 1.141
  Begin User Comments:        0
  End User Comments:          0
  Begin Experiment:           0
    Potential-DC:             0
    Potential-DC Type:        0
    Potential-AC:             20
    Potential-Monitor Type:   0
    Potential-Monitor TargetI:1
    Potential-Monitor Limit:  3000
    Potential-Monitor Error:  25
    Current-DC:               0
    Current-AC:               0.1
    Current-Monitor Type:     0
    Current-Monitor TargetE:  20
    Current-Monitor Limit:    60
    Current-Monitor Error:    25
    vs Freq-Initial:          100000
    vs Freq-Final:            0.08
    vs Freq-Lin/Log Type:     1
    vs Freq-Linear Type:      1
    vs Freq-Linear Interval:  100
    vs Freq-Log Type:         0
    vs Freq-Log Interval:     20
    Harmonics:                3
    PolE-Initial:             0
    PolE-Final:               0.2
    PolE-InitialType:         0
    PolE-FinalType:           0
    PolE-SweepRate:           1
    PolE-SweepRateType:       0
    PolE-DataRate:            5
    PolE-SegmentNo:           2
    PolE-IR:                  0
    AmplE-Initial:            10
    AmplE-Final:              200
    AmplE-SweepRate:          1
    AmplE-DataRate:           5
    AmplE-SegmentNo:          2
    PolI-Initial:             0
    PolI-Vertex:              0.01
    PolI-Final:               0.01
    PolI-SweepRate:           0.1
    PolI-SweepRateType:       0
    PolI-DataRate:            5
    PolI-SegmentNo:           2
    AmplI-Initial:            0.1
    AmplI-Final:              10
    AmplI-SweepRate:          0.1
    AmplI-DataRate:           5
    AmplI-SegmentNo:          2
    vs Time-Freq:             20000
    vs Time-Harmonic:         1
    vs Time-Total Time:       43200
    vs Time-Time Type:        0
    vs Time-Interval:         10
  End Experiment:             0
  Begin Pstat/Gstat:          1287
    Booster Type:             0
    Booster Name:             None
    Pstat Range High:         0
    Pstat Range Low:          0
    Pstat Range Frequency:    5000
    Pstat Range Minimum:      0
    Pstat Limit Range:        0
    Pstat Limit Type:         2
    Pstat Bandwidth:          2
    Pstat Use Aux:            0
    Gstat Range:              0
    Gstat Bandwidth:          2
    Filter:                   1
    Error Beep:               0
    Bias Rejection:           1
    Attenuator:               2
    Grounding:                0
    Calibration File
    ControlABC:               0
    SafetyMinV:               0
    SafetyMaxV:               10
    SafetyMinI:               0
    SafetyMaxI:               4
    SafetyMinQ:               0
    SafetyMaxQ:               1000
    SafetyMinT:               0
    SafetyMaxT:               50
    SafetyMinVUse:            0
    SafetyMaxVUse:            0
    SafetyMinIUse:            0
    SafetyMaxIUse:            0
    SafetyMinQUse:            0
    SafetyMaxQUse:            0
    SafetyMinTUse:            0
    SafetyMaxTUse:            0
  End Pstat/Gstat:            1287
  Begin Analyzer:             1255
    Z60 Mode:                 3
    Z60 GD Freq-:             5
    Z60 GD Freq+:             5
    Bias Voltage:             0
    Auto Integration Type:    0
    Integration Time Type:    0
    Integration Seconds:      0.2
    Integration Cycles:       1
    Delay Time Type:          1
    Delay Seconds:            0
    Delay Cycles:             0
    Source:                   2
    SourceI:                  1
    Error Beep:               0
    Range V1:                 0
    Coupling V1:              0
    Input V1:                 0
    Outer V1:                 1
    Location V1:              0
    Range V2:                 0
    Coupling V2:              0
    Input V2:                 0
    Outer V2:                 1
    Location V2:              0
    Coupling I:               0
  End Analyzer:               1255
  Begin Information:          Cell Information
    Surface Area:             1.527
    Density:                  0
    Weight:                   0
    Polarity:                 0
    PolarityI:                0
    Corrosion Unit Type:      0
    Reference Type:           0
    Reference Potential:      0
    User-Defined Potential:   0
    Stern-Geary:              26
  End Information:            Cell Information
  Null Configuration:         0,3,0,1,100000,0.08
  Data Points:                123
  Freq(Hz)	Ampl	Bias	Time(Sec)	Z'(a)	Z''(b)	Aux	Err	Range
End Comments
1.000000E+05	2.0000E-02	1.1410E+00	2.710000E+00	1.0216E-01	1.5028E-01	0.0000E+00	0	1
8.912509E+04	2.0000E-02	1.1410E+00	3.450000E+00	1.0074E-01	1.3260E-01	0.0000E+00	0	1
7.943282E+04	2.0000E-02	1.1410E+00	4.210000E+00	9.9837E-02	1.1660E-01	0.0000E+00	0	1
7.079458E+04	2.0000E-02	1.1410E+00	4.950000E+00	9.9084E-02	1.0215E-01	0.0000E+00	0	1
6.309573E+04	2.0000E-02	1.1410E+00	8.950000E+00	9.8649E-02	8.9001E-02	0.0000E+00	0	1
5.623413E+04	2.0000E-02	1.1410E+00	9.680000E+00	9.8459E-02	7.7208E-02	0.0000E+00	0	1
5.011872E+04	2.0000E-02	1.1410E+00	1.035000E+01	9.8447E-02	6.6425E-02	0.0000E+00	0	1
4.466836E+04	2.0000E-02	1.1410E+00	1.106000E+01	9.8556E-02	5.6482E-02	0.0000E+00	0	1
3.981072E+04	2.0000E-02	1.1410E+00	1.182000E+01	9.8811E-02	4.7448E-02	0.0000E+00	0	1
3.548134E+04	2.0000E-02	1.1410E+00	1.258000E+01	9.9211E-02	3.8990E-02	0.0000E+00	0	1
3.162278E+04	2.0000E-02	1.1410E+00	1.331000E+01	1.0007E-01	3.1061E-02	0.0000E+00	0	1
2.818383E+04	2.0000E-02	1.1410E+00	1.396000E+01	1.0119E-01	2.3898E-02	0.0000E+00	0	1
2.511886E+04	2.0000E-02	1.1410E+00	1.470000E+01	1.0246E-01	1.7333E-02	0.0000E+00	0	1
2.238721E+04	2.0000E-02	1.1410E+00	1.545000E+01	1.0386E-01	1.1257E-02	0.0000E+00	0	1
1.995262E+04	2.0000E-02	1.1410E+00	1.621000E+01	1.0538E-01	5.5473E-03	0.0000E+00	0	1
1.778279E+04	2.0000E-02	1.1410E+00	1.694000E+01	1.0700E-01	3.4112E-04	0.0000E+00	0	1
1.584893E+04	2.0000E-02	1.1410E+00	1.758000E+01	1.0890E-01	-4.4970E-03	0.0000E+00	0	1
1.412538E+04	2.0000E-02	1.1410E+00	1.831000E+01	1.1082E-01	-9.1255E-03	0.0000E+00	0	1
1.258925E+04	2.0000E-02	1.1410E+00	1.920000E+01	1.1290E-01	-1.3539E-02	0.0000E+00	0	1
1.122018E+04	2.0000E-02	1.1410E+00	1.995000E+01	1.1509E-01	-1.7721E-02	0.0000E+00	0	1
1.000000E+04	2.0000E-02	1.1410E+00	2.072000E+01	1.1737E-01	-2.1793E-02	0.0000E+00	0	1
8.912509E+03	2.0000E-02	1.1410E+00	2.144000E+01	1.1984E-01	-2.5702E-02	0.0000E+00	0	1
7.943282E+03	2.0000E-02	1.1410E+00	2.220000E+01	1.2247E-01	-2.9512E-02	0.0000E+00	0	1
7.079458E+03	2.0000E-02	1.1410E+00	2.295000E+01	1.2526E-01	-3.3249E-02	0.0000E+00	0	1
6.309573E+03	2.0000E-02	1.1410E+00	2.368000E+01	1.2823E-01	-3.6929E-02	0.0000E+00	0	1
5.623413E+03	2.0000E-02	1.1410E+00	2.446000E+01	1.3139E-01	-4.0585E-02	0.0000E+00	0	1
5.011872E+03	2.0000E-02	1.1410E+00	2.520000E+01	1.3475E-01	-4.4225E-02	0.0000E+00	0	1
4.466836E+03	2.0000E-02	1.1410E+00	2.594000E+01	1.3828E-01	-4.7836E-02	0.0000E+00	0	1
3.981072E+03	2.0000E-02	1.1410E+00	2.671000E+01	1.4210E-01	-5.1472E-02	0.0000E+00	0	1
3.548134E+03	2.0000E-02	1.1410E+00	2.745000E+01	1.4614E-01	-5.5099E-02	0.0000E+00	0	1
3.162278E+03	2.0000E-02	1.1410E+00	2.818000E+01	1.5045E-01	-5.8744E-02	0.0000E+00	0	1
2.818383E+03	2.0000E-02	1.1410E+00	2.895000E+01	1.5507E-01	-6.2364E-02	0.0000E+00	0	1
2.511886E+03	2.0000E-02	1.1410E+00	2.970000E+01	1.5995E-01	-6.6011E-02	0.0000E+00	0	1
2.238721E+03	2.0000E-02	1.1410E+00	3.043000E+01	1.6515E-01	-6.9642E-02	0.0000E+00	0	1
1.995262E+03	2.0000E-02	1.1410E+00	3.121000E+01	1.7069E-01	-7.3235E-02	0.0000E+00	0	1
1.778279E+03	2.0000E-02	1.1410E+00	3.194000E+01	1.7654E-01	-7.6799E-02	0.0000E+00	0	1
1.584893E+03	2.0000E-02	1.1410E+00	3.268000E+01	1.8269E-01	-8.0297E-02	0.0000E+00	0	1
1.412537E+03	2.0000E-02	1.1410E+00	3.346000E+01	1.8920E-01	-8.3695E-02	0.0000E+00	0	1
1.258925E+03	2.0000E-02	1.1410E+00	3.420000E+01	1.9608E-01	-8.6969E-02	0.0000E+00	0	1
1.122019E+03	2.0000E-02	1.1410E+00	3.494000E+01	2.0327E-01	-9.0156E-02	0.0000E+00	0	1
1.000000E+03	2.0000E-02	1.1410E+00	3.570000E+01	2.1085E-01	-9.3135E-02	0.0000E+00	0	1
8.912509E+02	2.0000E-02	1.1410E+00	3.645000E+01	2.1870E-01	-9.5934E-02	0.0000E+00	0	1
7.943282E+02	2.0000E-02	1.1410E+00	3.733000E+01	2.2687E-01	-9.8449E-02	0.0000E+00	0	1
7.079458E+02	2.0000E-02	1.1410E+00	3.821000E+01	2.3522E-01	-1.0074E-01	0.0000E+00	0	1
6.309573E+02	2.0000E-02	1.1410E+00	4.069000E+01	2.4392E-01	-1.0281E-01	0.0000E+00	0	1
5.623413E+02	2.0000E-02	1.1410E+00	4.146000E+01	2.5276E-01	-1.0456E-01	0.0000E+00	0	1
5.011872E+02	2.0000E-02	1.1410E+00	4.220000E+01	2.6176E-01	-1.0589E-01	0.0000E+00	0	1
4.466836E+02	2.0000E-02	1.1410E+00	4.295000E+01	2.7089E-01	-1.0693E-01	0.0000E+00	0	1
3.981072E+02	2.0000E-02	1.1410E+00	4.370000E+01	2.8001E-01	-1.0763E-01	0.0000E+00	0	1
3.548134E+02	2.0000E-02	1.1410E+00	4.446000E+01	2.8917E-01	-1.0798E-01	0.0000E+00	0	1
3.162278E+02	2.0000E-02	1.1410E+00	4.519000E+01	2.9819E-01	-1.0791E-01	0.0000E+00	0	1
2.818383E+02	2.0000E-02	1.1410E+00	4.596000E+01	3.0719E-01	-1.0768E-01	0.0000E+00	0	1
2.511886E+02	2.0000E-02	1.1410E+00	4.669000E+01	3.1603E-01	-1.0711E-01	0.0000E+00	0	1
2.238721E+02	2.0000E-02	1.1410E+00	4.743000E+01	3.2461E-01	-1.0642E-01	0.0000E+00	0	1
1.995262E+02	2.0000E-02	1.1410E+00	4.820000E+01	3.3299E-01	-1.0541E-01	0.0000E+00	0	1
1.778279E+02	2.0000E-02	1.1410E+00	4.896000E+01	3.4118E-01	-1.0439E-01	0.0000E+00	0	1
1.584893E+02	2.0000E-02	1.1410E+00	4.969000E+01	3.4900E-01	-1.0303E-01	0.0000E+00	0	1
1.412538E+02	2.0000E-02	1.1410E+00	5.046000E+01	3.5669E-01	-1.0201E-01	0.0000E+00	0	1
1.258925E+02	2.0000E-02	1.1410E+00	5.120000E+01	3.6424E-01	-1.0043E-01	0.0000E+00	0	1
1.122019E+02	2.0000E-02	1.1410E+00	5.194000E+01	3.7054E-01	-9.9661E-02	0.0000E+00	0	1
1.000000E+02	2.0000E-02	1.1410E+00	5.271000E+01	3.7793E-01	-9.8624E-02	0.0000E+00	0	1
8.912509E+01	2.0000E-02	1.1410E+00	5.345000E+01	3.8473E-01	-9.7783E-02	0.0000E+00	0	1
7.943282E+01	2.0000E-02	1.1410E+00	5.419000E+01	3.9117E-01	-9.7136E-02	0.0000E+00	0	1
7.079458E+01	2.0000E-02	1.1410E+00	5.495000E+01	3.9766E-01	-9.6684E-02	0.0000E+00	0	1
6.309573E+01	2.0000E-02	1.1410E+00	5.571000E+01	4.0421E-01	-9.6531E-02	0.0000E+00	0	1
5.623413E+01	2.0000E-02	1.1410E+00	5.644000E+01	4.1050E-01	-9.6265E-02	0.0000E+00	0	1
5.011872E+01	2.0000E-02	1.1410E+00	5.720000E+01	4.1686E-01	-9.6340E-02	0.0000E+00	0	1
4.466836E+01	2.0000E-02	1.1410E+00	5.796000E+01	4.2312E-01	-9.6490E-02	0.0000E+00	0	1
3.981072E+01	2.0000E-02	1.1410E+00	5.869000E+01	4.2939E-01	-9.6748E-02	0.0000E+00	0	1
3.548134E+01	2.0000E-02	1.1410E+00	5.946000E+01	4.3550E-01	-9.7308E-02	0.0000E+00	0	1
3.162278E+01	2.0000E-02	1.1410E+00	6.020000E+01	4.4158E-01	-9.7965E-02	0.0000E+00	0	1
2.818383E+01	2.0000E-02	1.1410E+00	6.095000E+01	4.4752E-01	-9.8905E-02	0.0000E+00	0	1
2.511886E+01	2.0000E-02	1.1410E+00	6.171000E+01	4.5332E-01	-1.0030E-01	0.0000E+00	0	1
2.238721E+01	2.0000E-02	1.1410E+00	6.245000E+01	4.5915E-01	-1.0184E-01	0.0000E+00	0	1
1.995262E+01	2.0000E-02	1.1410E+00	6.320000E+01	4.6490E-01	-1.0389E-01	0.0000E+00	0	1
1.778279E+01	2.0000E-02	1.1410E+00	6.396000E+01	4.7064E-01	-1.0648E-01	0.0000E+00	0	1
1.584893E+01	2.0000E-02	1.1410E+00	6.483000E+01	4.7658E-01	-1.0980E-01	0.0000E+00	0	1
1.412538E+01	2.0000E-02	1.1410E+00	6.557000E+01	4.8273E-01	-1.1371E-01	0.0000E+00	0	1
1.258925E+01	2.0000E-02	1.1410E+00	6.634000E+01	4.8931E-01	-1.1824E-01	0.0000E+00	0	1
1.122019E+01	2.0000E-02	1.1410E+00	6.707000E+01	4.9641E-01	-1.2355E-01	0.0000E+00	0	1
1.000000E+01	2.0000E-02	1.1410E+00	6.783000E+01	5.0422E-01	-1.2951E-01	0.0000E+00	0	1
8.912510E+00	2.0000E-02	1.1410E+00	6.857000E+01	5.1283E-01	-1.3601E-01	0.0000E+00	0	1
7.943280E+00	2.0000E-02	1.1410E+00	6.931000E+01	5.2257E-01	-1.4289E-01	0.0000E+00	0	1
7.079460E+00	2.0000E-02	1.1410E+00	7.021000E+01	5.3355E-01	-1.5011E-01	0.0000E+00	0	1
6.309570E+00	2.0000E-02	1.1410E+00	7.120000E+01	5.4572E-01	-1.5733E-01	0.0000E+00	0	1
5.623410E+00	2.0000E-02	1.1410E+00	7.221000E+01	5.5948E-01	-1.6441E-01	0.0000E+00	0	1
5.011870E+00	2.0000E-02	1.1410E+00	7.295000E+01	5.7444E-01	-1.7098E-01	0.0000E+00	0	1
4.466840E+00	2.0000E-02	1.1410E+00	7.381000E+01	5.9074E-01	-1.7669E-01	0.0000E+00	0	1
3.981070E+00	2.0000E-02	1.1410E+00	7.471000E+01	6.0854E-01	-1.8147E-01	0.0000E+00	0	1
3.548130E+00	2.0000E-02	1.1410E+00	7.557000E+01	6.2708E-01	-1.8464E-01	0.0000E+00	0	1
3.162280E+00	2.0000E-02	1.1410E+00	7.645000E+01	6.4644E-01	-1.8700E-01	0.0000E+00	0	1
2.818380E+00	2.0000E-02	1.1410E+00	7.743000E+01	6.6620E-01	-1.8634E-01	0.0000E+00	0	1
2.511890E+00	2.0000E-02	1.1410E+00	7.858000E+01	6.8608E-01	-1.8431E-01	0.0000E+00	0	1
2.238720E+00	2.0000E-02	1.1410E+00	7.996000E+01	7.0549E-01	-1.8049E-01	0.0000E+00	0	1
1.995260E+00	2.0000E-02	1.1410E+00	8.120000E+01	7.2406E-01	-1.7538E-01	0.0000E+00	0	1
1.778280E+00	2.0000E-02	1.1410E+00	8.232000E+01	7.4118E-01	-1.6838E-01	0.0000E+00	0	1
1.584890E+00	2.0000E-02	1.1410E+00	8.346000E+01	7.5736E-01	-1.6020E-01	0.0000E+00	0	1
1.412540E+00	2.0000E-02	1.1410E+00	8.484000E+01	7.7210E-01	-1.5107E-01	0.0000E+00	0	1
1.258930E+00	2.0000E-02	1.1410E+00	8.645000E+01	7.8524E-01	-1.4112E-01	0.0000E+00	0	1
1.122020E+00	2.0000E-02	1.1410E+00	8.808000E+01	7.9628E-01	-1.3090E-01	0.0000E+00	0	1
1.000000E+00	2.0000E-02	1.1410E+00	9.009000E+01	8.0626E-01	-1.2071E-01	0.0000E+00	0	1
8.912500E-01	2.0000E-02	1.1410E+00	9.233000E+01	8.1472E-01	-1.1092E-01	0.0000E+00	0	1
7.943300E-01	2.0000E-02	1.1410E+00	9.469000E+01	8.2205E-01	-1.0151E-01	0.0000E+00	0	1
7.079500E-01	2.0000E-02	1.1410E+00	9.758000E+01	8.2799E-01	-9.2385E-02	0.0000E+00	0	1
6.309600E-01	2.0000E-02	1.1410E+00	1.010800E+02	8.3380E-01	-8.3970E-02	0.0000E+00	0	1
5.623400E-01	2.0000E-02	1.1410E+00	1.040700E+02	8.3783E-01	-7.6213E-02	0.0000E+00	0	1
5.011900E-01	2.0000E-02	1.1410E+00	1.080800E+02	8.4184E-01	-6.9037E-02	0.0000E+00	0	1
4.466800E-01	2.0000E-02	1.1410E+00	1.123400E+02	8.4519E-01	-6.2105E-02	0.0000E+00	0	1
3.981100E-01	2.0000E-02	1.1410E+00	1.174600E+02	8.4796E-01	-5.5346E-02	0.0000E+00	0	1
3.548100E-01	2.0000E-02	1.1410E+00	1.230900E+02	8.5017E-01	-5.0215E-02	0.0000E+00	0	1
3.162300E-01	2.0000E-02	1.1410E+00	1.292000E+02	8.5231E-01	-4.5344E-02	0.0000E+00	0	1
2.818400E-01	2.0000E-02	1.1410E+00	1.363300E+02	8.5379E-01	-3.9661E-02	0.0000E+00	0	1
2.511900E-01	2.0000E-02	1.1410E+00	1.443300E+02	8.5486E-01	-3.5442E-02	0.0000E+00	0	1
2.238700E-01	2.0000E-02	1.1410E+00	1.494500E+02	8.5614E-01	-3.1801E-02	0.0000E+00	0	1
1.995300E-01	2.0000E-02	1.1410E+00	1.585800E+02	8.5715E-01	-2.9546E-02	0.0000E+00	0	1
1.778300E-01	2.0000E-02	1.1410E+00	1.647000E+02	8.5872E-01	-2.6704E-02	0.0000E+00	0	1
1.584900E-01	2.0000E-02	1.1410E+00	1.767000E+02	8.5914E-01	-2.2629E-02	0.0000E+00	0	1
1.412500E-01	2.0000E-02	1.1410E+00	1.843100E+02	8.5953E-01	-2.1523E-02	0.0000E+00	0	1
1.258900E-01	2.0000E-02	1.1410E+00	1.995900E+02	8.6004E-01	-1.8020E-02	0.0000E+00	0	1
1.122000E-01	2.0000E-02	1.1410E+00	2.090600E+02	8.6104E-01	-1.6336E-02	0.0000E+00	0	1
1.000000E-01	2.0000E-02	1.1410E+00	2.278400E+02	8.6279E-01	-1.6443E-02	0.0000E+00	0	1
8.913000E-02	2.0000E-02	1.1410E+00	2.401900E+02	8.6066E-01	-1.2217E-02	0.0000E+00	0	1
8.000000E-02	2.0000E-02	1.1410E+00	2.641900E+02	8.6498E-01	-1.0562E-02	0.0000E+00	0	1
